# Drehzahl [min-1] Leistung [mW]
4791.000 15.334
4678.000 37.170
4537.000 67.266
4422.000 88.892
4297.000 108.624
4175.000 122.850
4029.000 134.034
3900.000 140.732
3766.000 145.432
3581.000 144.780
3465.000 141.246
3312.000 135.558
3110.000 125.268
2923.000 109.230
2628.000 86.954
2354.000 73.283
